Carbon number	RT(min)
9	3.465
10	5.095
11	7.225
12	9.67
13	12.215
14	14.745
15	17.2
16	19.541
17	21.78
18	23.92
19	25.961
20	28.206
21	31.156
22	35.16
23	39.195
24	41.9
25	44.016
26	45.805
27	47.37
28	48.79
29	50.091
30	51.32
31	52.465
32	53.625
33	54.936
