Carbon number	RT(min)
9	3.46
10	5.085
11	7.22
12	9.665
13	12.21
14	14.74
15	17.2
16	19.54
17	21.78
18	23.915
19	25.955
20	28.2
21	31.15
22	35.155
23	39.19
24	41.9
25	44.02
26	45.805
27	47.37
28	48.785
29	50.09
30	51.315
31	52.465
