Carbon number	RT(min)
10	5.09
11	7.27
12	9.69
13	12.23
14	14.755
15	17.21
16	19.55
17	21.79
18	23.93
19	25.97
20	28.22
21	31.175
22	35.195
23	39.215
24	41.92
25	44.035
26	45.82
27	47.39
28	48.805
29	50.105
30	51.33
31	52.48
