Carbon number	RT(min)
9	3.47
10	5.101
11	7.235
12	9.68
13	12.231
14	14.755
15	17.215
16	19.555
17	21.796
18	23.93
19	25.971
20	28.226
21	31.18
22	35.195
23	39.215
24	41.92
25	44.04
26	45.82
27	47.391
28	48.806
29	50.11
30	51.335
31	52.485
32	53.645
33	54.961
