Carbon number	RT(min)
9	3.475
10	5.105
11	7.24
12	9.685
13	12.235
14	14.76
15	17.215
16	19.56
17	21.8
18	23.935
19	25.975
20	28.23
21	31.185
22	35.21
23	39.225
24	41.925
25	44.04
26	45.825
27	47.39
28	48.81
29	50.11
30	51.335
31	52.485
32	53.645
33	54.965
